# Time, flux, Xc, Yc
3.072723055419977754e+03 4.137832000000000000e+06 5.750786812997724837e+02 9.685257146737711764e+02
3.072743489020038396e+03 4.140260000000000000e+06 5.750809439503799467e+02 9.685245928999628404e+02
3.072763922620099038e+03 4.143204000000000000e+06 5.750829708119609904e+02 9.685215608500088820e+02
3.072784356319811195e+03 4.145624000000000000e+06 5.750862622852433788e+02 9.685198607013081755e+02
3.072804789820220321e+03 4.147688000000000000e+06 5.750922646544291865e+02 9.685177426556674618e+02
3.072825223419815302e+03 4.150401000000000000e+06 5.750947679513377579e+02 9.685155063330025769e+02
3.072845657019875944e+03 4.152615000000000000e+06 5.751002120350671021e+02 9.685129683344109708e+02
3.072866090619936585e+03 4.155627000000000000e+06 5.751017555232940595e+02 9.685088382571390184e+02
3.072886524219997227e+03 4.157089000000000000e+06 5.751082002333844230e+02 9.685078447923534668e+02
3.072906957820057869e+03 4.158740000000000000e+06 5.751114433698668336e+02 9.685102932619014382e+02
3.072927391420118511e+03 4.160171000000000000e+06 5.751149308526020150e+02 9.685080743075224063e+02
3.072947825119830668e+03 4.162141000000000000e+06 5.751172651286922246e+02 9.685067036412269772e+02
3.072968258619774133e+03 4.164068000000000000e+06 5.751203918860114754e+02 9.685057523075992094e+02
3.072988692219834775e+03 4.165869000000000000e+06 5.751253356742614642e+02 9.685048144816843205e+02
3.073009125920012593e+03 4.167202000000000000e+06 5.751307630395647266e+02 9.685027747634983371e+02
3.073029559419956058e+03 4.168390000000000000e+06 5.751359836771511027e+02 9.685014108564697608e+02
3.073049993020016700e+03 4.169393000000000000e+06 5.751434247143408811e+02 9.685012748858166560e+02
3.073070426720194519e+03 4.171194000000000000e+06 5.751481434332711160e+02 9.684992397860180517e+02
3.073090860220137984e+03 4.173017000000000000e+06 5.751535893575319278e+02 9.684989994049868756e+02
3.073111293820198625e+03 4.174107000000000000e+06 5.751606667006859652e+02 9.684987744684073050e+02
3.073131727519910783e+03 4.175314000000000000e+06 5.751692402056468154e+02 9.684997257691277355e+02
3.073152161119971424e+03 4.172900000000000000e+06 5.750317997076373331e+02 9.684903484387356229e+02
3.073172594720032066e+03 4.174791000000000000e+06 5.750065735027214942e+02 9.684857941391557006e+02
3.073193028320092708e+03 4.176485000000000000e+06 5.750093684042921041e+02 9.684848505381918358e+02
3.073213461920153350e+03 4.178060000000000000e+06 5.750151986807273943e+02 9.684853625845488523e+02
3.073233895520213991e+03 4.179441000000000000e+06 5.750212681552388858e+02 9.684849368611735372e+02
3.073254329119808972e+03 4.181221000000000000e+06 5.750254617012590188e+02 9.684844577696323995e+02
3.073274762719869614e+03 4.182065000000000000e+06 5.750315930048910786e+02 9.684842457015852233e+02
3.073295196319930255e+03 4.183475000000000000e+06 5.750381438875575668e+02 9.684833438708251379e+02
3.073315629919990897e+03 4.184351000000000000e+06 5.750470127864512051e+02 9.684838475548538099e+02
3.073336063520051539e+03 4.185877000000000000e+06 5.750516314741212227e+02 9.684820946721558812e+02
3.073356497219763696e+03 4.186918000000000000e+06 5.750592638785856252e+02 9.684821601473923920e+02
3.073376930720172822e+03 4.188015000000000000e+06 5.750647318598429365e+02 9.684828597796330314e+02
3.073397364320233464e+03 4.188389000000000000e+06 5.750706615359748639e+02 9.684831396988197412e+02
3.073417798019945621e+03 4.189255000000000000e+06 5.750722386199932998e+02 9.684856104486358390e+02
3.073438231519889086e+03 4.190106000000000000e+06 5.750771083118183924e+02 9.684846707935312224e+02
3.073458665220066905e+03 4.190407000000000000e+06 5.750830224844507939e+02 9.684856640417028757e+02
3.073479098820127547e+03 4.191484000000000000e+06 5.750892908096511746e+02 9.684858205351613378e+02
3.073499532320071012e+03 4.192147000000000000e+06 5.750929466452392944e+02 9.684875597158210212e+02
3.073519966019783169e+03 4.193014000000000000e+06 5.750981480147693219e+02 9.684872347194643680e+02
3.073540399619843811e+03 4.193116000000000000e+06 5.751045024750089851e+02 9.684884286530589179e+02
3.073560833119787276e+03 4.194454000000000000e+06 5.751087862687253391e+02 9.684867315269162873e+02
3.073581266819965094e+03 4.195201000000000000e+06 5.751116678318869617e+02 9.684873156256398943e+02
3.073601700420025736e+03 4.195273000000000000e+06 5.751184356774874686e+02 9.684886373306337646e+02
3.073622133919969201e+03 4.195679000000000000e+06 5.751239801710282791e+02 9.684890824584053917e+02
3.073642567620147020e+03 4.195818000000000000e+06 5.750479439289310903e+02 9.684804348043694517e+02
3.073663001120090485e+03 4.196629000000000000e+06 5.750403347543945074e+02 9.684795596656268799e+02
3.073683434720151126e+03 4.197159000000000000e+06 5.750482257164906059e+02 9.684811340242292772e+02
3.073703868419863284e+03 4.197442000000000000e+06 5.750537420171618805e+02 9.684839018621340756e+02
3.073724302019923925e+03 4.198159000000000000e+06 5.750575507025818069e+02 9.684835248021811367e+02
3.073744735519867390e+03 4.198370000000000000e+06 5.750656897796048952e+02 9.684853250189954679e+02
3.073765169220045209e+03 4.199404000000000000e+06 5.750700730389360160e+02 9.684838617575255739e+02
3.073785602820105851e+03 4.199901000000000000e+06 5.750771882480087243e+02 9.684844768960030024e+02
3.073806036420166492e+03 4.200104000000000000e+06 5.750843645776390076e+02 9.684852396512086443e+02
3.073826470020227134e+03 4.200255000000000000e+06 5.750937764492870201e+02 9.684862461921954946e+02
3.073846903619822115e+03 4.201133000000000000e+06 5.750986917100696019e+02 9.684858213248663787e+02
3.073867337319999933e+03 4.201887000000000000e+06 5.751036527160297283e+02 9.684861353958352765e+02
3.073887770819943398e+03 4.201260000000000000e+06 5.750378838729333211e+02 9.684785552429509607e+02
3.073908204420004040e+03 4.201922000000000000e+06 5.750332243197279922e+02 9.684786121684314821e+02
3.073928638120181859e+03 4.202212000000000000e+06 5.750418453424053951e+02 9.684795802781962948e+02
3.073949071620125324e+03 4.177780000000000000e+06 5.750889245005720340e+02 9.685061578158735074e+02
3.073969505220185965e+03 4.141633000000000000e+06 5.751546998490691749e+02 9.685444415282570390e+02
3.073989938919898123e+03 4.143704000000000000e+06 5.751618880113057912e+02 9.685444230572453534e+02
3.074010372419841588e+03 4.186061000000000000e+06 5.751033974421300172e+02 9.685008118610790007e+02
3.074030806019902229e+03 4.204667000000000000e+06 5.750856203356888727e+02 9.684812830599902327e+02
3.074051239720080048e+03 4.205357000000000000e+06 5.750949427123547366e+02 9.684798883899750308e+02
3.074071673220023513e+03 4.205123000000000000e+06 5.751056066612082986e+02 9.684812303944497671e+02
3.074092106820084155e+03 4.205792000000000000e+06 5.751203958731197190e+02 9.684848682483584525e+02
3.074112540519796312e+03 4.205408000000000000e+06 5.751308065709677066e+02 9.684858912619180273e+02
3.074132974020205438e+03 4.205326000000000000e+06 5.750781428122338639e+02 9.684814939436324721e+02
3.074153407719917595e+03 4.207045000000000000e+06 5.750732844550034315e+02 9.684796399848349893e+02
3.074173841319978237e+03 4.206547000000000000e+06 5.750839683949805021e+02 9.684797923332367873e+02
3.074194274920038879e+03 4.207569000000000000e+06 5.750909220977719087e+02 9.684790305280793064e+02
3.074214708520099521e+03 4.207937000000000000e+06 5.750995592376976902e+02 9.684778298724529577e+02
3.074235142120160162e+03 4.207950000000000000e+06 5.751089307144809482e+02 9.684776335270142908e+02
3.074255575720220804e+03 4.208504000000000000e+06 5.751184309198707751e+02 9.684758895322423768e+02
3.074276009319815785e+03 4.208494000000000000e+06 5.751264822998440422e+02 9.684780695897392206e+02
3.074296442919876426e+03 4.208659000000000000e+06 5.751346915965393691e+02 9.684794541444198330e+02
3.074316876519937068e+03 4.208555000000000000e+06 5.751422982472606691e+02 9.684838318615296657e+02
3.074337310119997710e+03 4.208562000000000000e+06 5.751496504031542827e+02 9.684831018290808515e+02
3.074357743720058352e+03 4.208660000000000000e+06 5.751574315815485079e+02 9.684835189822888424e+02
3.074378177220001817e+03 4.206984000000000000e+06 5.750250514382749998e+02 9.684715513536538083e+02
3.074398610920179635e+03 4.208569000000000000e+06 5.750012800075274981e+02 9.684674237252614830e+02
3.074419044519774616e+03 4.209111000000000000e+06 5.750081007604693468e+02 9.684665745331971038e+02
3.074439478020183742e+03 4.208972000000000000e+06 5.750161008436264183e+02 9.684677878588880731e+02
3.074459911719895899e+03 4.210060000000000000e+06 5.750188610138573040e+02 9.684664893136914543e+02
3.074480345319956541e+03 4.209895000000000000e+06 5.750265196637921008e+02 9.684671734093130908e+02
3.074500778819900006e+03 4.210139000000000000e+06 5.750324692367639727e+02 9.684666691527287412e+02
3.074521212520077825e+03 4.211044000000000000e+06 5.750374821540691528e+02 9.684672772357638451e+02
3.074541646120138466e+03 4.210915000000000000e+06 5.750450947121943273e+02 9.684686964709570702e+02
3.074562079720199108e+03 4.211125000000000000e+06 5.750513943423669616e+02 9.684694318026655537e+02
3.074582513319794089e+03 4.211523000000000000e+06 5.750581533093848066e+02 9.684696217971503529e+02
3.074602946919854730e+03 4.211444000000000000e+06 5.750665360859600241e+02 9.684694373236353613e+02
3.074623380620032549e+03 3.710836000000000000e+06 5.759734245868047537e+02 9.684957537870172928e+02
3.074643814119976014e+03 4.211168000000000000e+06 5.750433670658591154e+02 9.684686177326575489e+02
3.074664247720036656e+03 4.211992000000000000e+06 5.750466411142281231e+02 9.684672798523833990e+02
3.074684681420214474e+03 4.212086000000000000e+06 5.750507145390669166e+02 9.684675711749474658e+02
3.074705115019809455e+03 4.212231000000000000e+06 5.750557832654476442e+02 9.684677459522043819e+02
3.074725548520218581e+03 4.212275000000000000e+06 5.750613571051272856e+02 9.684676622490221689e+02
3.074745982219930738e+03 4.212501000000000000e+06 5.750657376698545704e+02 9.684673050522718540e+02
3.074766415819991380e+03 4.212825000000000000e+06 5.750707829069567651e+02 9.684673424602256091e+02
3.074786849319934845e+03 4.213111000000000000e+06 5.750757454527069967e+02 9.684674949223981457e+02
3.074807283020112664e+03 4.212328000000000000e+06 5.750811988050313630e+02 9.684680274185675444e+02
3.074827716620173305e+03 4.213471000000000000e+06 5.750859251196934565e+02 9.684671884534152468e+02
3.074848150120116770e+03 4.212947000000000000e+06 5.750911597036468947e+02 9.684678831706166875e+02
3.074868583819828928e+03 4.212300000000000000e+06 5.750404968781900834e+02 9.684666882700662427e+02
3.074889017419889569e+03 4.212574000000000000e+06 5.750339645072110670e+02 9.684665304395839485e+02
3.074909450919833034e+03 4.212765000000000000e+06 5.750426546460578265e+02 9.684701396826075097e+02
3.074929884620010853e+03 4.213206000000000000e+06 5.750450906032128842e+02 9.684669399027724239e+02
3.074950318220071495e+03 4.213268000000000000e+06 5.750498017216090147e+02 9.684673460126438158e+02
3.074970751720014960e+03 4.213627000000000000e+06 5.750551902197323670e+02 9.684660198921261554e+02
3.074991185420192778e+03 4.214044000000000000e+06 5.750623460504921240e+02 9.684660153050134568e+02
3.075011619019787759e+03 4.214259000000000000e+06 5.750672383923247253e+02 9.684648909808342978e+02
3.075032052619848400e+03 4.214174000000000000e+06 5.750743044781729623e+02 9.684650704978009799e+02
3.075052486219909042e+03 4.214120000000000000e+06 5.750820254287965554e+02 9.684667100130038762e+02
3.075072919819969684e+03 4.214621000000000000e+06 5.750876838035970877e+02 9.684660438032268530e+02
3.075093353420030326e+03 4.214758000000000000e+06 5.750934919632396713e+02 9.684672299097599080e+02
3.075113787020090967e+03 4.211383000000000000e+06 5.749913087933346105e+02 9.684664714655494890e+02
3.075134220620151609e+03 4.211782000000000000e+06 5.749746513471020535e+02 9.684646973656281261e+02
3.075154654220212251e+03 4.212259000000000000e+06 5.749788519651806382e+02 9.684643173651003281e+02
3.075175087819807231e+03 4.212462000000000000e+06 5.749833843011521139e+02 9.684639415144872601e+02
3.075195521419867873e+03 4.213401000000000000e+06 5.749908399414155156e+02 9.684626011148712905e+02
3.075215955120045692e+03 4.213316000000000000e+06 5.749980798971641889e+02 9.684623721553284668e+02
3.075236388619989157e+03 4.213145000000000000e+06 5.750021055529776959e+02 9.684625618154608446e+02
3.075256822220049798e+03 4.213684000000000000e+06 5.750096409697547415e+02 9.684622615269678363e+02
3.075277255920227617e+03 4.214510000000000000e+06 5.750153111512370288e+02 9.684630239339804803e+02
3.075297689420171082e+03 4.213974000000000000e+06 5.750234313263441663e+02 9.684635237426714411e+02
3.075318123020231724e+03 4.214093000000000000e+06 5.750291728255641601e+02 9.684648630203462290e+02
3.075338556719943881e+03 4.214399000000000000e+06 5.750360260146227347e+02 9.684654604369449089e+02
3.075358990219887346e+03 4.214270000000000000e+06 5.750430829064108593e+02 9.684677317779828627e+02
3.075379423819947988e+03 4.214592000000000000e+06 5.750469855682353000e+02 9.684684384633197851e+02
3.075399857520125806e+03 4.215065000000000000e+06 5.750512746541274964e+02 9.684675280215133171e+02
3.075420291020069271e+03 4.215117000000000000e+06 5.750584828368939725e+02 9.684686097681274077e+02
3.075440724620129913e+03 4.215711000000000000e+06 5.750632771079422128e+02 9.684667272021255258e+02
3.075461158319842070e+03 4.215450000000000000e+06 5.750707675337152978e+02 9.684674874568551104e+02
3.075481591819785535e+03 4.215921000000000000e+06 5.750767606888269938e+02 9.684684442616453453e+02
3.075502025419846177e+03 4.215929000000000000e+06 5.750853377749008359e+02 9.684695112275372821e+02
3.075522459120023996e+03 4.215788000000000000e+06 5.750921927288563893e+02 9.684703108884981475e+02
3.075542892720084637e+03 4.216088000000000000e+06 5.750971806091333747e+02 9.684707238084214396e+02
3.075563326220028102e+03 4.216318000000000000e+06 5.751027778265302004e+02 9.684711288380051428e+02
3.075583759920205921e+03 4.216438000000000000e+06 5.751107024459982995e+02 9.684723292504241954e+02
3.075604193519800901e+03 4.215323000000000000e+06 5.750557632238383121e+02 9.684666577151975844e+02
3.075624627119861543e+03 4.215375000000000000e+06 5.750526778756338899e+02 9.684669392402811354e+02
3.075645060719922185e+03 4.215692000000000000e+06 5.750601393555316463e+02 9.684681637083543819e+02
3.075665494319982827e+03 4.216029000000000000e+06 5.750665773409053827e+02 9.684698319200366541e+02
3.075685928020160645e+03 4.216187000000000000e+06 5.750720904931398536e+02 9.684674508032969698e+02
3.075706361520104110e+03 4.186475000000000000e+06 5.751254227004818631e+02 9.684982193850435124e+02
3.075726795120164752e+03 4.153976000000000000e+06 5.751840482467881657e+02 9.685324241160757310e+02
3.075747228720225394e+03 4.157107000000000000e+06 5.751864770379978609e+02 9.685289534284298725e+02
3.075767662319820374e+03 4.202676000000000000e+06 5.751212284744291310e+02 9.684856201144223178e+02
3.075788095919881016e+03 4.218375000000000000e+06 5.751029951106764884e+02 9.684703552908406436e+02
3.075808529519941658e+03 4.216500000000000000e+06 5.751148663583541065e+02 9.684757384086327647e+02
3.075828963120002300e+03 4.216010000000000000e+06 5.751228109041487642e+02 9.684770050355667763e+02
3.075849396720062941e+03 4.215739000000000000e+06 5.750510228455793822e+02 9.684668298962531026e+02
3.075869830320123583e+03 4.216205000000000000e+06 5.750454299541886485e+02 9.684663966766321437e+02
3.075890263920184225e+03 4.216356000000000000e+06 5.750507926750018441e+02 9.684668543168555743e+02
3.075910697519779205e+03 4.216478000000000000e+06 5.750573063585295586e+02 9.684676462203763094e+02
3.075931131119839847e+03 4.217157000000000000e+06 5.750630642871489044e+02 9.684679180784589789e+02
3.075951564719900489e+03 4.216441000000000000e+06 5.750732525369144241e+02 9.684696133540111305e+02
3.075971998319961131e+03 4.216670000000000000e+06 5.750806171694725890e+02 9.684687710918805124e+02
3.075992431920021772e+03 4.216810000000000000e+06 5.750862716129016690e+02 9.684688575012864931e+02
3.076012865520082414e+03 4.216386000000000000e+06 5.750927279902741702e+02 9.684702560439201307e+02
3.076033299120143056e+03 4.217134000000000000e+06 5.750986022734871312e+02 9.684700863192870202e+02
3.076053732819855213e+03 4.216684000000000000e+06 5.751049687384684148e+02 9.684716416975993525e+02
3.076074166319798678e+03 4.217001000000000000e+06 5.751109700946241219e+02 9.684714160608451721e+02
3.076094599919859320e+03 4.216061000000000000e+06 5.750511662426137036e+02 9.684675031978902098e+02
3.076115033620037138e+03 4.216108000000000000e+06 5.750460298929723422e+02 9.684681566506360468e+02
3.076135467119980603e+03 4.216564000000000000e+06 5.750491366904427650e+02 9.684679231715681453e+02
3.076155900720041245e+03 4.216764000000000000e+06 5.750534193993308918e+02 9.684674755333710436e+02
3.076176334420219064e+03 4.216889000000000000e+06 5.750614313063492773e+02 9.684679651278465826e+02
3.076196767920162529e+03 4.216885000000000000e+06 5.750668763791281890e+02 9.684675911247283011e+02
3.076217201520223171e+03 4.217175000000000000e+06 5.750717966411164070e+02 9.684681124212298755e+02
3.076237635219935328e+03 4.217129000000000000e+06 5.750759262996223242e+02 9.684687340605421468e+02
3.076258068719878793e+03 4.217272000000000000e+06 5.750821867785621180e+02 9.684682531740897957e+02
3.076278502420056611e+03 4.216891000000000000e+06 5.750944368730422411e+02 9.684708371641571603e+02
3.076298936020117253e+03 4.216606000000000000e+06 5.750989947839565275e+02 9.684717495540252230e+02
3.076319369520060718e+03 4.216961000000000000e+06 5.751060393966175752e+02 9.684724025192549561e+02
3.076339803219772875e+03 4.215322000000000000e+06 5.750363794272418545e+02 9.684661741143381732e+02
3.076360236819833517e+03 4.216124000000000000e+06 5.750300100281680216e+02 9.684656400048954765e+02
3.076380670419894159e+03 4.216591000000000000e+06 5.750363587552124045e+02 9.684671655372787882e+02
3.076401104019954801e+03 4.216416000000000000e+06 5.750431888124891202e+02 9.684688111894082567e+02
3.076421537620015442e+03 4.216049000000000000e+06 5.750494728595422202e+02 9.684708839958927911e+02
3.076441971220076084e+03 4.216415000000000000e+06 5.750560983679263245e+02 9.684707105443842465e+02
3.076462404820136726e+03 4.216846000000000000e+06 5.750605521282968766e+02 9.684698634951336089e+02
3.076482838420197368e+03 4.217264000000000000e+06 5.750649606000478116e+02 9.684687771503040494e+02
3.076503272019792348e+03 4.216973000000000000e+06 5.750733535642746119e+02 9.684697174964127271e+02
3.076523705619852990e+03 4.217091000000000000e+06 5.750810022833275070e+02 9.684688504469075951e+02
3.076544139219913632e+03 4.217100000000000000e+06 5.750872087453462882e+02 9.684696775034976781e+02
3.076564572819974273e+03 4.217306000000000000e+06 5.750925434388683470e+02 9.684722346445811354e+02
3.076585006420034915e+03 3.634300000000000000e+06 5.764707693365985506e+02 9.696311798695759308e+02
3.076605440020095557e+03 4.214094000000000000e+06 5.749947485746639586e+02 9.684639234435682056e+02
3.076625873520039022e+03 4.215243000000000000e+06 5.749816155320108919e+02 9.684615541737451849e+02
3.076646307220216841e+03 4.215712000000000000e+06 5.749840657995612219e+02 9.684612805618600078e+02
3.076666740819811821e+03 4.215656000000000000e+06 5.749884841172998904e+02 9.684615011281755415e+02
3.076687174320220947e+03 4.216009000000000000e+06 5.749945621558208586e+02 9.684613038065145929e+02
3.076707608019933105e+03 4.215459000000000000e+06 5.749988150756537379e+02 9.684626732225364094e+02
3.076728041619993746e+03 4.215768000000000000e+06 5.750027548954307122e+02 9.684622142394932780e+02
3.076748475220054388e+03 4.215917000000000000e+06 5.750082202756838115e+02 9.684625721995950016e+02
3.076768908820115030e+03 4.216274000000000000e+06 5.750131300764609250e+02 9.684633681302495916e+02
